Wavelength nm.	109030AL_rublight_26Aug2021_thirdrun_recoat - RawData	109030AL_0.5%SC_Brushtwice_26Aug2021 - RawData	406025AL_S_0.5%SCinCLF_ayakobrush_qzg_26Aug2021_run2 - RawData	ayako_406025AL_dil_run3_aug23 - RawData	Ayako_406025AL_diluted_brushed_23Aug2021_run2 - RawData	Ayako_406025ALdiluted_brushed_0.0003g_23Aug2021 - RawData	109030AL_normalSC_Aug212021_lightrubbing - RawData	1mm_QZG - RawData	Ayako_10907AL_diluted_brushed_1Sep2021 - RawData	Ayako_10907AL_Diluted_brushed_1Sep2021_trial2 - RawData	Ayako_10907AF_Diluted_blushed_0.0005g(2layers)_1Sep2021 - RawData	Ayako_10907AL_diluted_blushed_0.0004g_1Sep2021 - RawData
200.0	8.9	41.5	12.4	1.1	1.1	1.1	13.7	100.0	1.6	1.6	0.1	0.3
200.5	8.9	41.3	12.3	1.1	1.1	1.1	13.7	100.0	1.6	1.6	0.1	0.3
201.0	8.8	41.1	12.3	1.1	1.0	1.1	13.6	100.1	1.5	1.5	0.1	0.3
201.5	8.8	40.9	12.2	1.1	1.0	1.1	13.5	100.0	1.5	1.5	0.1	0.3
202.0	8.7	40.7	12.2	1.1	1.0	1.0	13.5	100.0	1.5	1.5	0.1	0.3
202.5	8.7	40.6	12.1	1.1	1.0	1.0	13.4	100.0	1.5	1.5	0.1	0.3
203.0	8.7	40.5	12.1	1.1	1.0	1.0	13.4	100.0	1.5	1.5	0.1	0.3
203.5	8.7	40.4	12.1	1.1	1.0	1.0	13.4	100.0	1.5	1.5	0.1	0.3
204.0	8.7	40.4	12.1	1.1	1.0	1.0	13.4	100.0	1.5	1.5	0.1	0.3
204.5	8.6	40.4	12.2	1.1	1.0	1.0	13.4	100.0	1.5	1.5	0.1	0.3
205.0	8.7	40.4	12.3	1.1	1.0	1.1	13.5	100.0	1.5	1.5	0.1	0.3
205.5	8.7	40.4	12.3	1.1	1.1	1.1	13.5	100.0	1.6	1.5	0.1	0.3
206.0	8.7	40.5	12.5	1.1	1.1	1.1	13.6	100.0	1.6	1.6	0.1	0.3
206.5	8.7	40.7	12.6	1.2	1.1	1.1	13.7	100.0	1.6	1.6	0.1	0.3
207.0	8.8	40.9	12.7	1.2	1.1	1.2	13.8	100.0	1.7	1.7	0.1	0.3
207.5	8.8	41.1	12.9	1.2	1.2	1.2	13.9	100.0	1.8	1.7	0.1	0.3
208.0	8.9	41.3	13.1	1.3	1.2	1.3	14.0	100.0	1.8	1.8	0.1	0.3
208.5	8.9	41.5	13.3	1.3	1.3	1.3	14.2	100.0	1.9	1.9	0.1	0.4
209.0	9.0	41.8	13.5	1.4	1.3	1.4	14.4	100.0	2.0	2.0	0.1	0.4
209.5	9.1	42.2	13.8	1.5	1.4	1.5	14.5	100.0	2.1	2.1	0.1	0.4
210.0	9.2	42.5	14.0	1.6	1.5	1.5	14.7	100.0	2.2	2.2	0.1	0.4
210.5	9.3	42.9	14.3	1.6	1.5	1.6	14.9	100.0	2.3	2.3	0.1	0.4
211.0	9.4	43.2	14.6	1.7	1.6	1.7	15.1	100.0	2.4	2.4	0.1	0.5
211.5	9.5	43.6	14.9	1.8	1.7	1.8	15.4	100.0	2.5	2.5	0.1	0.5
212.0	9.6	44.0	15.2	1.9	1.8	1.9	15.6	100.0	2.7	2.7	0.1	0.5
212.5	9.7	44.5	15.6	2.1	2.0	2.1	15.9	100.0	2.8	2.8	0.1	0.5
213.0	9.9	44.9	15.9	2.2	2.1	2.2	16.2	100.0	3.0	3.0	0.2	0.6
213.5	10.0	45.4	16.3	2.4	2.3	2.4	16.4	100.0	3.2	3.2	0.2	0.6
214.0	10.1	45.8	16.6	2.5	2.4	2.5	16.7	100.0	3.4	3.3	0.2	0.7
214.5	10.2	46.3	17.0	2.7	2.6	2.7	17.0	100.0	3.5	3.5	0.2	0.7
215.0	10.4	46.7	17.3	2.9	2.8	2.9	17.3	100.0	3.7	3.7	0.2	0.7
215.5	10.5	47.1	17.7	3.1	3.0	3.1	17.6	100.0	3.9	3.9	0.2	0.8
216.0	10.7	47.6	18.0	3.3	3.2	3.3	17.9	100.0	4.1	4.1	0.2	0.8
216.5	10.8	48.0	18.4	3.6	3.4	3.6	18.2	100.0	4.4	4.3	0.2	0.9
217.0	11.0	48.5	18.8	3.8	3.6	3.8	18.5	100.0	4.6	4.6	0.2	0.9
217.5	11.1	48.9	19.1	4.1	3.9	4.1	18.8	100.0	4.8	4.8	0.3	1.0
218.0	11.2	49.3	19.5	4.3	4.1	4.4	19.1	100.0	5.0	5.0	0.3	1.1
218.5	11.4	49.7	19.9	4.6	4.4	4.7	19.4	100.0	5.2	5.2	0.3	1.1
219.0	11.5	50.1	20.2	4.9	4.7	4.9	19.7	100.0	5.5	5.5	0.3	1.2
219.5	11.7	50.5	20.5	5.2	5.0	5.2	20.0	100.0	5.7	5.7	0.3	1.3
220.0	11.8	50.9	20.9	5.5	5.3	5.5	20.3	100.0	5.9	5.9	0.3	1.3
220.5	11.9	51.3	21.2	5.8	5.5	5.8	20.6	100.0	6.2	6.1	0.4	1.4
221.0	12.1	51.6	21.5	6.1	5.8	6.1	20.9	100.0	6.4	6.4	0.4	1.5
221.5	12.2	51.9	21.8	6.3	6.1	6.4	21.2	100.0	6.6	6.6	0.4	1.5
222.0	12.3	52.3	22.1	6.6	6.4	6.7	21.4	100.0	6.8	6.8	0.4	1.6
222.5	12.4	52.6	22.4	6.9	6.6	6.9	21.7	100.0	7.1	7.0	0.4	1.7
223.0	12.6	52.9	22.7	7.1	6.8	7.2	22.0	100.0	7.3	7.3	0.5	1.7
223.5	12.7	53.2	23.0	7.3	7.1	7.4	22.2	100.0	7.5	7.5	0.5	1.8
224.0	12.8	53.5	23.3	7.5	7.3	7.6	22.4	100.0	7.7	7.7	0.5	1.9
224.5	12.9	53.7	23.5	7.7	7.4	7.8	22.7	100.0	7.9	7.9	0.5	1.9
225.0	13.0	54.0	23.8	7.9	7.6	7.9	22.9	100.0	8.1	8.1	0.5	2.0
225.5	13.1	54.2	24.0	8.0	7.8	8.1	23.1	100.0	8.3	8.2	0.5	2.1
226.0	13.2	54.5	24.2	8.2	7.9	8.2	23.3	100.0	8.5	8.4	0.6	2.1
226.5	13.3	54.7	24.5	8.3	8.0	8.4	23.5	100.0	8.7	8.6	0.6	2.2
227.0	13.4	54.9	24.7	8.4	8.1	8.5	23.7	100.0	8.8	8.8	0.6	2.3
227.5	13.4	55.2	24.9	8.5	8.2	8.6	23.9	100.0	9.0	9.0	0.6	2.3
228.0	13.5	55.4	25.1	8.6	8.3	8.7	24.1	100.0	9.2	9.1	0.6	2.4
228.5	13.6	55.6	25.3	8.7	8.4	8.8	24.3	100.0	9.4	9.3	0.6	2.4
229.0	13.7	55.7	25.5	8.8	8.5	8.9	24.4	100.0	9.5	9.5	0.7	2.5
229.5	13.8	55.9	25.7	8.9	8.6	9.0	24.6	100.0	9.7	9.6	0.7	2.6
230.0	13.8	56.1	25.9	9.0	8.7	9.0	24.8	100.0	9.9	9.8	0.7	2.6
230.5	13.9	56.3	26.1	9.1	8.8	9.1	24.9	100.0	10.0	10.0	0.7	2.7
231.0	14.0	56.5	26.3	9.1	8.8	9.2	25.1	100.0	10.2	10.2	0.7	2.8
231.5	14.1	56.7	26.5	9.2	8.9	9.3	25.3	100.0	10.4	10.3	0.7	2.8
232.0	14.2	56.9	26.8	9.3	9.0	9.4	25.5	100.0	10.6	10.5	0.8	2.9
232.5	14.2	57.1	27.0	9.4	9.1	9.5	25.6	100.0	10.7	10.7	0.8	3.0
233.0	14.3	57.3	27.2	9.5	9.2	9.5	25.8	100.0	10.9	10.9	0.8	3.0
233.5	14.4	57.5	27.4	9.6	9.3	9.6	26.0	100.0	11.1	11.1	0.8	3.1
234.0	14.4	57.7	27.6	9.7	9.4	9.7	26.2	100.0	11.3	11.3	0.8	3.2
234.5	14.5	57.9	27.8	9.8	9.5	9.9	26.4	100.0	11.5	11.5	0.9	3.3
235.0	14.6	58.1	28.1	9.9	9.6	10.0	26.5	100.0	11.7	11.7	0.9	3.4
235.5	14.7	58.3	28.3	10.0	9.7	10.1	26.7	100.0	11.9	11.9	0.9	3.4
236.0	14.8	58.5	28.5	10.2	9.9	10.2	26.9	100.0	12.1	12.1	0.9	3.5
236.5	14.9	58.7	28.8	10.3	10.0	10.4	27.1	100.0	12.4	12.3	1.0	3.6
237.0	15.0	59.0	29.0	10.5	10.2	10.6	27.3	100.0	12.6	12.6	1.0	3.7
237.5	15.1	59.2	29.3	10.7	10.3	10.7	27.6	100.0	12.9	12.9	1.0	3.9
238.0	15.2	59.5	29.6	10.9	10.5	10.9	27.8	100.0	13.1	13.1	1.1	4.0
238.5	15.3	59.7	29.9	11.1	10.7	11.1	28.0	100.0	13.4	13.4	1.1	4.1
239.0	15.4	60.0	30.2	11.3	10.9	11.3	28.3	100.0	13.7	13.7	1.1	4.2
239.5	15.5	60.3	30.5	11.5	11.1	11.6	28.5	100.0	14.0	14.0	1.2	4.4
240.0	15.6	60.5	30.8	11.7	11.4	11.8	28.7	100.0	14.3	14.3	1.2	4.5
240.5	15.7	60.8	31.1	12.0	11.6	12.0	29.0	100.0	14.6	14.6	1.2	4.6
241.0	15.8	61.1	31.4	12.2	11.9	12.3	29.2	100.0	14.9	14.9	1.3	4.8
241.5	15.9	61.4	31.7	12.5	12.2	12.6	29.5	100.0	15.3	15.3	1.3	5.0
242.0	16.1	61.7	32.0	12.8	12.4	12.8	29.8	100.0	15.6	15.6	1.4	5.1
242.5	16.2	62.0	32.4	13.1	12.7	13.1	30.1	100.0	16.0	16.0	1.4	5.3
243.0	16.3	62.3	32.7	13.4	13.1	13.5	30.3	100.0	16.3	16.3	1.5	5.5
243.5	16.5	62.6	33.1	13.8	13.4	13.8	30.6	100.0	16.7	16.7	1.6	5.7
244.0	16.6	62.9	33.4	14.1	13.7	14.2	30.9	100.0	17.1	17.1	1.6	5.9
244.5	16.7	63.2	33.8	14.5	14.1	14.5	31.2	100.0	17.5	17.5	1.7	6.1
245.0	16.9	63.5	34.2	14.9	14.5	14.9	31.5	100.0	17.9	17.9	1.7	6.3
245.5	17.0	63.8	34.5	15.3	14.9	15.3	31.8	100.0	18.3	18.3	1.8	6.5
246.0	17.2	64.2	34.9	15.8	15.3	15.7	32.1	100.0	18.7	18.7	1.9	6.8
246.5	17.3	64.5	35.3	16.2	15.8	16.2	32.4	100.0	19.1	19.1	2.0	7.0
247.0	17.5	64.8	35.6	16.6	16.2	16.6	32.7	100.0	19.5	19.5	2.0	7.2
247.5	17.6	65.1	36.0	17.1	16.6	17.1	33.0	100.0	19.9	19.9	2.1	7.5
248.0	17.8	65.4	36.3	17.5	17.1	17.5	33.3	100.0	20.3	20.3	2.2	7.7
248.5	17.9	65.7	36.7	18.0	17.5	17.9	33.6	100.0	20.7	20.7	2.3	7.9
249.0	18.1	66.0	37.0	18.4	18.0	18.4	33.9	100.0	21.1	21.1	2.3	8.2
249.5	18.2	66.3	37.3	18.9	18.4	18.8	34.1	100.0	21.5	21.5	2.4	8.4
250.0	18.3	66.5	37.7	19.3	18.9	19.3	34.4	100.0	21.9	21.9	2.5	8.6
250.5	18.5	66.8	38.0	19.7	19.3	19.7	34.7	100.0	22.2	22.3	2.6	8.9
251.0	18.6	67.1	38.3	20.2	19.8	20.2	35.0	100.0	22.6	22.7	2.7	9.1
251.5	18.8	67.3	38.6	20.7	20.2	20.6	35.2	100.0	23.0	23.0	2.7	9.3
252.0	18.9	67.6	38.9	21.1	20.7	21.1	35.5	100.0	23.4	23.4	2.8	9.6
252.5	19.1	67.8	39.2	21.6	21.1	21.5	35.8	100.0	23.7	23.8	2.9	9.8
253.0	19.2	68.1	39.5	22.1	21.6	22.0	36.0	100.0	24.1	24.1	3.0	10.0
253.5	19.4	68.3	39.8	22.6	22.1	22.5	36.3	100.0	24.4	24.5	3.1	10.3
254.0	19.5	68.5	40.1	23.1	22.6	23.0	36.5	100.0	24.8	24.8	3.2	10.5
254.5	19.6	68.8	40.3	23.6	23.1	23.5	36.8	100.0	25.1	25.2	3.3	10.8
255.0	19.8	69.0	40.6	24.2	23.7	24.1	37.0	100.0	25.5	25.5	3.3	11.0
255.5	19.9	69.2	40.8	24.7	24.3	24.6	37.3	100.0	25.8	25.8	3.4	11.2
256.0	20.1	69.4	41.1	25.3	24.8	25.2	37.5	100.0	26.1	26.2	3.5	11.4
256.5	20.2	69.6	41.3	25.9	25.4	25.8	37.8	100.0	26.5	26.5	3.6	11.7
257.0	20.3	69.7	41.6	26.4	26.0	26.3	38.0	100.0	26.8	26.8	3.7	11.9
257.5	20.4	69.9	41.8	27.0	26.5	26.9	38.2	100.0	27.1	27.1	3.8	12.1
258.0	20.6	70.1	42.0	27.5	27.0	27.4	38.5	100.0	27.4	27.4	3.8	12.3
258.5	20.7	70.3	42.2	28.0	27.6	27.9	38.7	100.0	27.7	27.7	3.9	12.5
259.0	20.8	70.5	42.4	28.5	28.0	28.4	38.9	100.0	27.9	28.0	4.0	12.7
259.5	21.0	70.6	42.6	29.0	28.5	28.8	39.1	100.0	28.2	28.3	4.1	12.9
260.0	21.1	70.8	42.8	29.4	28.9	29.2	39.3	100.0	28.5	28.5	4.2	13.1
260.5	21.2	70.9	43.0	29.8	29.4	29.7	39.5	100.0	28.8	28.8	4.2	13.3
261.0	21.3	71.1	43.2	30.2	29.8	30.1	39.7	100.0	29.0	29.0	4.3	13.5
261.5	21.5	71.2	43.4	30.6	30.2	30.5	39.9	100.0	29.3	29.3	4.4	13.7
262.0	21.6	71.4	43.6	31.0	30.5	30.8	40.1	100.0	29.5	29.5	4.5	13.8
262.5	21.7	71.5	43.7	31.3	30.8	31.1	40.3	100.0	29.7	29.7	4.5	14.0
263.0	21.8	71.6	43.9	31.6	31.1	31.4	40.5	100.0	30.0	30.0	4.6	14.2
263.5	21.9	71.8	44.1	31.9	31.4	31.7	40.7	100.0	30.2	30.2	4.7	14.3
264.0	22.0	71.9	44.2	32.2	31.7	32.0	40.8	100.0	30.4	30.4	4.7	14.5
264.5	22.1	72.0	44.3	32.4	32.0	32.3	41.0	100.0	30.6	30.6	4.8	14.6
265.0	22.2	72.1	44.5	32.7	32.2	32.5	41.1	100.0	30.7	30.7	4.9	14.8
265.5	22.3	72.2	44.6	32.9	32.4	32.7	41.3	100.0	30.9	30.9	4.9	14.9
266.0	22.4	72.3	44.7	33.1	32.6	32.9	41.4	100.0	31.0	31.0	5.0	15.0
266.5	22.5	72.3	44.8	33.3	32.8	33.1	41.5	100.0	31.2	31.2	5.0	15.1
267.0	22.6	72.4	44.9	33.4	33.0	33.2	41.6	100.0	31.3	31.3	5.1	15.2
267.5	22.6	72.5	45.0	33.6	33.1	33.4	41.8	100.0	31.5	31.4	5.1	15.3
268.0	22.7	72.6	45.1	33.8	33.3	33.6	41.9	100.0	31.6	31.6	5.1	15.4
268.5	22.8	72.7	45.2	33.9	33.4	33.7	42.0	100.0	31.7	31.7	5.2	15.5
269.0	22.9	72.7	45.3	34.0	33.6	33.8	42.1	100.0	31.8	31.8	5.2	15.6
269.5	22.9	72.8	45.4	34.1	33.7	33.9	42.1	100.0	31.9	31.9	5.2	15.6
270.0	23.0	72.8	45.5	34.2	33.8	34.0	42.2	100.0	32.0	31.9	5.3	15.7
270.5	23.0	72.9	45.5	34.3	33.9	34.1	42.3	100.0	32.0	32.0	5.3	15.8
271.0	23.1	72.9	45.6	34.4	33.9	34.2	42.4	100.0	32.1	32.1	5.3	15.8
271.5	23.1	73.0	45.7	34.5	34.0	34.3	42.4	100.0	32.2	32.1	5.3	15.9
272.0	23.2	73.0	45.7	34.5	34.1	34.3	42.5	100.0	32.2	32.2	5.3	15.9
272.5	23.2	73.1	45.8	34.6	34.1	34.4	42.5	100.0	32.3	32.2	5.4	15.9
273.0	23.2	73.1	45.8	34.6	34.2	34.4	42.6	100.0	32.3	32.3	5.4	16.0
273.5	23.3	73.1	45.9	34.7	34.2	34.5	42.6	100.0	32.3	32.3	5.4	16.0
274.0	23.3	73.2	45.9	34.7	34.2	34.5	42.7	100.0	32.4	32.3	5.4	16.0
274.5	23.3	73.2	46.0	34.7	34.2	34.5	42.7	100.0	32.4	32.4	5.4	16.0
275.0	23.4	73.2	46.0	34.7	34.3	34.5	42.7	100.0	32.4	32.4	5.4	16.1
275.5	23.4	73.2	46.1	34.7	34.3	34.6	42.7	100.0	32.5	32.4	5.4	16.1
276.0	23.4	73.3	46.1	34.8	34.3	34.6	42.8	100.0	32.5	32.4	5.4	16.1
276.5	23.4	73.3	46.1	34.8	34.3	34.6	42.8	100.0	32.5	32.4	5.4	16.1
277.0	23.4	73.3	46.2	34.7	34.3	34.6	42.8	100.0	32.5	32.4	5.4	16.1
277.5	23.5	73.3	46.2	34.7	34.3	34.6	42.8	100.0	32.5	32.4	5.4	16.1
278.0	23.5	73.4	46.2	34.7	34.3	34.6	42.8	100.0	32.5	32.5	5.4	16.1
278.5	23.5	73.4	46.3	34.7	34.3	34.6	42.9	100.0	32.5	32.5	5.4	16.1
279.0	23.5	73.4	46.3	34.7	34.3	34.6	42.9	100.0	32.6	32.5	5.4	16.2
279.5	23.5	73.4	46.4	34.7	34.2	34.5	42.9	100.0	32.6	32.5	5.4	16.2
280.0	23.6	73.5	46.4	34.7	34.2	34.5	42.9	100.0	32.6	32.5	5.5	16.2
280.5	23.6	73.5	46.5	34.7	34.2	34.5	42.9	100.0	32.6	32.6	5.5	16.2
281.0	23.6	73.5	46.5	34.7	34.2	34.5	43.0	100.0	32.7	32.6	5.5	16.2
281.5	23.6	73.5	46.6	34.7	34.2	34.5	43.0	100.0	32.7	32.6	5.5	16.3
282.0	23.6	73.6	46.6	34.7	34.2	34.5	43.0	100.0	32.7	32.7	5.5	16.3
282.5	23.6	73.6	46.7	34.7	34.2	34.6	43.0	100.0	32.8	32.7	5.5	16.3
283.0	23.7	73.7	46.7	34.8	34.3	34.6	43.1	100.0	32.9	32.8	5.5	16.4
283.5	23.7	73.7	46.8	34.8	34.4	34.7	43.1	100.0	32.9	32.9	5.6	16.5
284.0	23.7	73.8	46.9	34.9	34.4	34.8	43.1	100.0	33.0	33.0	5.6	16.5
284.5	23.7	73.8	47.0	35.0	34.5	34.9	43.1	100.0	33.1	33.0	5.6	16.6
285.0	23.8	73.9	47.1	35.1	34.7	35.0	43.2	100.0	33.2	33.1	5.6	16.7
285.5	23.8	73.9	47.2	35.2	34.8	35.1	43.3	100.0	33.3	33.2	5.7	16.7
286.0	23.9	74.0	47.3	35.4	34.9	35.2	43.3	100.0	33.4	33.3	5.7	16.8
286.5	23.9	74.1	47.4	35.5	35.0	35.4	43.4	100.0	33.5	33.5	5.7	16.9
287.0	23.9	74.1	47.5	35.6	35.2	35.5	43.5	100.0	33.7	33.6	5.8	17.1
287.5	24.0	74.3	47.6	35.8	35.3	35.6	43.5	100.0	33.8	33.8	5.8	17.2
288.0	24.1	74.3	47.7	35.9	35.4	35.8	43.6	100.0	34.0	34.0	5.9	17.3
288.5	24.1	74.5	47.9	36.0	35.6	35.9	43.8	100.0	34.2	34.1	6.0	17.5
289.0	24.2	74.6	48.0	36.2	35.7	36.0	43.9	100.0	34.4	34.4	6.1	17.7
289.5	24.3	74.7	48.2	36.4	35.9	36.2	44.0	100.0	34.6	34.6	6.1	17.9
290.0	24.4	74.8	48.4	36.6	36.1	36.4	44.1	100.0	34.8	34.8	6.2	18.1
290.5	24.5	74.9	48.6	36.8	36.3	36.6	44.3	100.0	35.1	35.1	6.3	18.3
291.0	24.6	75.1	48.8	37.1	36.6	36.9	44.4	100.0	35.4	35.4	6.4	18.5
291.5	24.7	75.2	49.0	37.4	36.9	37.2	44.6	100.0	35.7	35.7	6.5	18.8
292.0	24.8	75.4	49.2	37.7	37.2	37.5	44.8	100.0	35.9	36.0	6.7	19.0
292.5	24.9	75.5	49.4	38.0	37.6	37.9	44.9	100.0	36.3	36.3	6.8	19.3
293.0	25.0	75.7	49.6	38.4	37.9	38.2	45.1	100.0	36.6	36.6	6.9	19.6
293.5	25.2	75.8	49.8	38.8	38.3	38.6	45.3	100.0	36.9	36.9	7.0	19.9
294.0	25.3	76.0	50.0	39.2	38.7	38.9	45.5	100.0	37.2	37.2	7.2	20.1
294.5	25.4	76.2	50.3	39.5	39.1	39.3	45.6	100.0	37.4	37.5	7.3	20.4
295.0	25.5	76.3	50.5	39.9	39.4	39.6	45.8	100.0	37.7	37.8	7.4	20.6
295.5	25.6	76.4	50.6	40.2	39.8	40.0	45.9	100.0	38.0	38.0	7.5	20.9
296.0	25.7	76.6	50.8	40.5	40.1	40.3	46.1	100.0	38.2	38.3	7.6	21.1
296.5	25.8	76.7	51.0	40.9	40.4	40.6	46.2	100.0	38.5	38.5	7.7	21.3
297.0	25.9	76.8	51.1	41.2	40.8	41.0	46.3	100.0	38.7	38.8	7.8	21.6
297.5	26.0	76.9	51.3	41.5	41.1	41.3	46.5	100.0	39.0	39.0	7.9	21.8
298.0	26.1	77.0	51.5	41.8	41.4	41.6	46.6	100.0	39.2	39.2	8.0	22.0
298.5	26.2	77.2	51.6	42.2	41.7	41.9	46.8	100.0	39.4	39.4	8.1	22.2
299.0	26.3	77.3	51.8	42.5	42.0	42.2	46.9	100.0	39.6	39.7	8.2	22.4
299.5	26.4	77.4	51.9	42.8	42.4	42.5	47.0	100.0	39.8	39.9	8.3	22.6
300.0	26.5	77.5	52.1	43.1	42.7	42.9	47.2	100.0	40.1	40.1	8.5	22.8
300.5	26.6	77.6	52.2	43.5	43.0	43.2	47.3	100.0	40.3	40.4	8.6	23.0
301.0	26.7	77.7	52.4	43.8	43.3	43.5	47.4	100.0	40.5	40.6	8.7	23.2
301.5	26.8	77.8	52.5	44.0	43.6	43.8	47.6	100.0	40.7	40.8	8.8	23.4
302.0	26.9	77.9	52.7	44.3	43.9	44.0	47.7	100.0	40.9	41.0	8.9	23.7
302.5	27.1	78.0	52.8	44.6	44.2	44.3	47.8	100.0	41.2	41.3	9.0	23.9
303.0	27.2	78.1	53.0	44.9	44.5	44.6	48.0	100.0	41.4	41.5	9.1	24.1
303.5	27.3	78.2	53.1	45.2	44.7	44.9	48.1	100.0	41.7	41.7	9.2	24.3
304.0	27.4	78.3	53.3	45.4	45.0	45.1	48.3	100.0	41.9	41.9	9.4	24.6
304.5	27.5	78.4	53.4	45.6	45.2	45.3	48.4	100.0	42.1	42.2	9.5	24.8
305.0	27.6	78.4	53.6	45.7	45.3	45.4	48.7	100.0	42.5	42.5	9.6	25.0
305.5	27.8	78.3	53.8	45.8	45.4	45.5	48.9	100.0	42.8	42.9	9.7	25.3
306.0	27.9	78.3	54.1	45.9	45.4	45.6	49.2	100.0	43.2	43.3	9.8	25.5
306.5	28.0	78.4	54.2	46.1	45.6	45.8	49.3	100.1	43.4	43.5	10.0	25.8
307.0	28.2	78.5	54.4	46.3	45.8	45.9	49.5	100.0	43.6	43.8	10.1	26.0
307.5	28.3	78.6	54.5	46.5	46.0	46.1	49.7	100.0	43.9	44.0	10.3	26.2
308.0	28.4	78.7	54.6	46.7	46.2	46.3	49.8	100.1	44.1	44.3	10.4	26.5
308.5	28.6	78.8	54.8	46.8	46.3	46.4	50.0	100.1	44.4	44.5	10.6	26.7
309.0	28.7	78.9	54.9	46.9	46.5	46.6	50.1	100.0	44.6	44.7	10.7	27.0
309.5	28.8	79.0	55.1	47.1	46.6	46.7	50.3	100.0	44.9	45.0	10.9	27.2
310.0	29.0	79.1	55.2	47.2	46.7	46.8	50.5	100.0	45.1	45.2	11.0	27.5
310.5	29.1	79.2	55.3	47.3	46.9	47.0	50.6	100.0	45.4	45.5	11.1	27.7
311.0	29.2	79.3	55.5	47.5	47.0	47.1	50.8	100.0	45.6	45.7	11.3	28.0
311.5	29.4	79.4	55.6	47.6	47.1	47.2	50.9	100.0	45.8	45.9	11.4	28.2
312.0	29.5	79.5	55.7	47.7	47.2	47.3	51.1	100.0	46.1	46.2	11.6	28.4
312.5	29.6	79.6	55.9	47.8	47.3	47.4	51.2	100.0	46.3	46.4	11.7	28.7
313.0	29.7	79.6	56.0	47.9	47.4	47.6	51.4	100.0	46.5	46.6	11.9	28.9
313.5	29.8	79.7	56.1	48.0	47.6	47.7	51.5	100.0	46.7	46.8	12.0	29.2
314.0	30.0	79.8	56.2	48.1	47.7	47.8	51.7	100.0	46.9	47.0	12.1	29.4
314.5	30.1	79.9	56.3	48.3	47.8	47.9	51.8	100.0	47.1	47.2	12.3	29.6
315.0	30.2	80.0	56.4	48.4	47.9	48.0	51.9	100.0	47.3	47.4	12.4	29.8
315.5	30.3	80.1	56.5	48.5	48.0	48.1	52.1	100.0	47.5	47.6	12.5	30.0
316.0	30.4	80.1	56.7	48.6	48.1	48.2	52.2	100.0	47.7	47.8	12.7	30.2
316.5	30.6	80.2	56.8	48.7	48.2	48.3	52.3	100.0	47.9	48.0	12.8	30.4
317.0	30.7	80.3	56.9	48.8	48.3	48.4	52.4	100.0	48.1	48.2	12.9	30.6
317.5	30.8	80.4	57.0	48.9	48.4	48.5	52.6	100.0	48.3	48.4	13.1	30.8
318.0	30.9	80.5	57.1	49.0	48.5	48.6	52.7	100.0	48.5	48.6	13.2	31.0
318.5	31.0	80.5	57.2	49.1	48.7	48.7	52.8	100.0	48.7	48.8	13.3	31.2
319.0	31.1	80.6	57.3	49.2	48.8	48.9	52.9	100.0	48.9	48.9	13.4	31.4
319.5	31.2	80.7	57.4	49.3	48.9	49.0	53.0	100.0	49.0	49.1	13.5	31.6
320.0	31.3	80.8	57.5	49.4	49.0	49.1	53.1	100.0	49.2	49.3	13.7	31.8
320.5	31.4	80.8	57.6	49.5	49.1	49.2	53.3	100.0	49.4	49.5	13.8	32.0
321.0	31.5	80.9	57.7	49.6	49.2	49.3	53.4	100.1	49.5	49.6	13.9	32.2
321.5	31.6	81.0	57.8	49.7	49.3	49.4	53.5	100.0	49.7	49.8	14.0	32.4
322.0	31.7	81.0	57.9	49.8	49.4	49.5	53.6	100.0	49.9	49.9	14.1	32.5
322.5	31.8	81.1	58.0	49.9	49.5	49.6	53.7	100.0	50.0	50.1	14.2	32.7
323.0	31.9	81.2	58.1	50.0	49.6	49.6	53.8	100.0	50.2	50.2	14.3	32.9
323.5	32.0	81.2	58.2	50.1	49.7	49.7	53.9	100.0	50.3	50.4	14.5	33.0
324.0	32.1	81.3	58.3	50.2	49.8	49.8	54.0	100.0	50.5	50.5	14.6	33.2
324.5	32.2	81.4	58.3	50.3	49.8	49.9	54.1	100.0	50.6	50.7	14.7	33.4
325.0	32.3	81.4	58.4	50.4	49.9	50.0	54.2	100.0	50.8	50.8	14.8	33.5
325.5	32.4	81.5	58.5	50.5	50.0	50.1	54.3	100.0	50.9	51.0	14.9	33.7
326.0	32.5	81.6	58.6	50.6	50.1	50.2	54.4	100.0	51.0	51.1	15.0	33.9
326.5	32.6	81.6	58.7	50.7	50.2	50.3	54.5	100.0	51.2	51.3	15.1	34.0
327.0	32.7	81.7	58.8	50.8	50.3	50.4	54.6	100.0	51.3	51.4	15.2	34.2
327.5	32.7	81.8	58.9	50.9	50.4	50.5	54.6	100.0	51.5	51.5	15.3	34.4
328.0	32.8	81.8	59.0	51.0	50.5	50.6	54.7	100.0	51.6	51.7	15.4	34.5
328.5	32.9	81.9	59.0	51.1	50.6	50.7	54.8	100.0	51.7	51.8	15.5	34.7
329.0	33.0	81.9	59.1	51.1	50.7	50.8	54.9	100.0	51.9	51.9	15.6	34.8
329.5	33.1	82.0	59.2	51.2	50.8	50.9	55.0	100.0	52.0	52.1	15.7	35.0
330.0	33.2	82.1	59.3	51.3	50.9	51.0	55.1	100.0	52.1	52.2	15.8	35.2
330.5	33.3	82.1	59.4	51.4	51.0	51.0	55.2	100.0	52.3	52.3	16.0	35.3
331.0	33.4	82.2	59.5	51.5	51.1	51.1	55.3	100.0	52.4	52.5	16.1	35.5
331.5	33.4	82.3	59.6	51.6	51.1	51.2	55.4	100.0	52.6	52.6	16.2	35.6
332.0	33.5	82.3	59.6	51.7	51.2	51.3	55.5	100.0	52.7	52.7	16.3	35.8
332.5	33.6	82.4	59.7	51.8	51.3	51.4	55.5	100.0	52.8	52.9	16.4	36.0
333.0	33.7	82.4	59.8	51.9	51.4	51.5	55.6	100.0	53.0	53.0	16.5	36.1
333.5	33.8	82.5	59.9	52.0	51.5	51.6	55.7	100.0	53.1	53.2	16.6	36.3
334.0	33.9	82.5	60.0	52.1	51.6	51.7	55.8	100.0	53.3	53.3	16.7	36.4
334.5	34.0	82.6	60.1	52.2	51.7	51.8	55.9	100.0	53.4	53.5	16.9	36.6
335.0	34.1	82.7	60.1	52.3	51.8	51.9	56.0	100.0	53.5	53.6	17.0	36.8
335.5	34.2	82.7	60.2	52.4	51.9	52.0	56.1	100.0	53.7	53.7	17.1	36.9
336.0	34.3	82.8	60.3	52.5	52.0	52.1	56.2	100.0	53.8	53.9	17.2	37.1
336.5	34.4	82.9	60.4	52.6	52.1	52.2	56.3	100.0	54.0	54.0	17.3	37.3
337.0	34.4	82.9	60.5	52.7	52.2	52.3	56.3	100.0	54.1	54.1	17.4	37.4
337.5	34.5	82.9	60.6	52.8	52.3	52.4	56.4	100.0	54.2	54.3	17.6	37.6
338.0	34.6	83.0	60.7	52.9	52.4	52.5	56.5	100.0	54.4	54.4	17.7	37.8
338.5	34.7	83.1	60.8	52.9	52.5	52.6	56.6	100.0	54.5	54.6	17.8	37.9
339.0	34.8	83.1	60.9	53.0	52.6	52.7	56.7	100.0	54.7	54.7	17.9	38.1
339.5	34.9	83.2	60.9	53.1	52.7	52.8	56.8	100.0	54.8	54.9	18.1	38.3
340.0	35.0	83.2	61.0	53.3	52.8	52.9	56.9	100.0	54.9	55.0	18.2	38.5
340.5	35.1	83.3	61.1	53.3	52.9	52.9	56.9	100.0	55.1	55.2	18.3	38.6
341.0	35.2	83.3	61.2	53.4	53.0	53.0	57.0	100.0	55.2	55.3	18.5	38.8
341.5	35.3	83.4	61.3	53.5	53.1	53.1	57.1	100.0	55.4	55.5	18.6	39.0
342.0	35.3	83.5	61.4	53.6	53.2	53.2	57.2	100.0	55.5	55.6	18.7	39.2
342.5	35.4	83.5	61.5	53.7	53.3	53.3	57.3	100.0	55.7	55.8	18.8	39.3
343.0	35.5	83.6	61.5	53.8	53.4	53.4	57.4	100.0	55.8	55.9	19.0	39.5
343.5	35.6	83.6	61.6	53.9	53.5	53.5	57.5	100.0	56.0	56.0	19.1	39.7
344.0	35.7	83.7	61.7	54.0	53.6	53.6	57.6	100.0	56.1	56.2	19.2	39.9
344.5	35.8	83.8	61.8	54.1	53.7	53.7	57.7	100.0	56.3	56.3	19.4	40.0
345.0	35.9	83.8	61.9	54.2	53.7	53.8	57.8	100.0	56.4	56.5	19.5	40.2
345.5	36.0	83.9	62.0	54.3	53.8	53.9	57.9	100.0	56.5	56.6	19.6	40.4
346.0	36.1	83.9	62.1	54.4	53.9	54.0	58.0	100.0	56.7	56.7	19.8	40.6
346.5	36.2	84.0	62.2	54.5	54.0	54.1	58.1	100.0	56.9	56.9	19.9	40.8
347.0	36.3	84.0	62.2	54.6	54.1	54.2	58.2	100.0	57.0	57.1	20.0	40.9
347.5	36.4	84.1	62.3	54.7	54.2	54.3	58.3	100.0	57.2	57.2	20.2	41.1
348.0	36.5	84.1	62.4	54.8	54.3	54.4	58.4	100.0	57.3	57.4	20.3	41.3
348.5	36.6	84.2	62.5	54.8	54.4	54.5	58.4	100.0	57.5	57.5	20.5	41.5
349.0	36.7	84.3	62.6	54.9	54.5	54.6	58.5	100.0	57.6	57.7	20.6	41.7
349.5	36.8	84.4	62.7	55.0	54.6	54.6	58.6	100.0	57.8	57.9	20.8	41.9
350.0	36.9	84.4	62.7	55.1	54.7	54.7	58.7	100.0	58.0	58.0	20.9	42.1
350.5	37.0	84.4	62.8	55.2	54.8	54.8	58.8	100.0	58.1	58.2	21.1	42.3
351.0	37.1	84.5	62.9	55.3	54.9	54.9	58.9	100.1	58.3	58.4	21.3	42.5
351.5	37.2	84.6	63.0	55.4	55.0	55.0	59.0	100.0	58.5	58.5	21.4	42.7
352.0	37.3	84.6	63.1	55.5	55.1	55.1	59.2	100.0	58.6	58.7	21.6	42.9
352.5	37.4	84.7	63.2	55.6	55.2	55.2	59.3	100.1	58.8	58.9	21.7	43.1
353.0	37.5	84.8	63.3	55.7	55.3	55.3	59.4	100.0	59.0	59.0	21.9	43.3
353.5	37.6	84.8	63.4	55.8	55.4	55.4	59.5	100.0	59.1	59.2	22.1	43.5
354.0	37.7	84.9	63.5	55.9	55.5	55.5	59.6	100.0	59.3	59.4	22.3	43.7
354.5	37.9	85.0	63.6	56.0	55.6	55.7	59.7	100.0	59.5	59.6	22.4	44.0
355.0	38.0	85.0	63.6	56.1	55.7	55.7	59.8	100.0	59.7	59.8	22.6	44.2
355.5	38.1	85.1	63.7	56.2	55.8	55.8	59.9	100.0	59.9	59.9	22.8	44.4
356.0	38.2	85.1	63.8	56.3	55.9	55.9	60.0	100.0	60.1	60.1	23.0	44.6
356.5	38.3	85.2	63.9	56.4	56.0	56.1	60.2	100.0	60.2	60.3	23.2	44.9
357.0	38.4	85.3	64.0	56.6	56.1	56.2	60.3	100.0	60.4	60.5	23.4	45.1
357.5	38.6	85.3	64.1	56.6	56.2	56.3	60.4	100.0	60.6	60.7	23.6	45.4
358.0	38.7	85.4	64.2	56.8	56.4	56.4	60.5	100.0	60.8	60.9	23.8	45.6
358.5	38.8	85.5	64.3	56.9	56.5	56.5	60.6	100.0	61.0	61.1	24.0	45.8
359.0	38.9	85.5	64.4	57.0	56.6	56.6	60.7	100.0	61.2	61.3	24.2	46.1
359.5	39.1	85.6	64.5	57.1	56.7	56.7	60.9	100.0	61.4	61.5	24.4	46.3
360.0	39.2	85.7	64.6	57.2	56.8	56.8	61.0	100.0	61.6	61.7	24.6	46.6
360.5	39.3	85.7	64.7	57.3	56.9	56.9	61.1	100.0	61.8	61.9	24.8	46.9
361.0	39.5	85.8	64.8	57.4	57.0	57.0	61.3	100.0	62.0	62.1	25.0	47.1
361.5	39.6	85.9	64.9	57.5	57.1	57.1	61.4	100.0	62.3	62.3	25.3	47.4
362.0	39.7	85.9	65.0	57.6	57.2	57.2	61.5	100.0	62.5	62.5	25.5	47.6
362.5	39.9	86.0	65.1	57.7	57.4	57.3	61.7	100.0	62.7	62.8	25.7	47.9
363.0	40.0	86.1	65.2	57.9	57.5	57.5	61.8	100.0	62.9	63.0	26.0	48.2
363.5	40.1	86.2	65.3	58.0	57.6	57.6	61.9	100.0	63.2	63.2	26.2	48.5
364.0	40.3	86.2	65.4	58.1	57.7	57.7	62.1	100.0	63.4	63.4	26.5	48.8
364.5	40.4	86.3	65.5	58.2	57.8	57.8	62.2	100.0	63.6	63.7	26.7	49.0
365.0	40.6	86.4	65.6	58.3	57.9	57.9	62.4	100.0	63.8	63.9	27.0	49.3
365.5	40.7	86.4	65.7	58.4	58.0	58.0	62.5	100.0	64.1	64.1	27.3	49.6
366.0	40.9	86.5	65.8	58.5	58.1	58.1	62.6	100.0	64.3	64.4	27.5	49.9
366.5	41.0	86.6	65.9	58.6	58.2	58.2	62.8	100.0	64.5	64.6	27.8	50.2
367.0	41.1	86.7	66.0	58.7	58.4	58.3	62.9	100.0	64.8	64.8	28.0	50.5
367.5	41.3	86.7	66.1	58.9	58.5	58.4	63.1	100.0	65.0	65.1	28.3	50.8
368.0	41.4	86.8	66.2	59.0	58.6	58.6	63.2	100.0	65.2	65.3	28.6	51.1
368.5	41.6	86.9	66.3	59.1	58.7	58.7	63.4	100.0	65.4	65.5	28.8	51.4
369.0	41.7	87.0	66.4	59.2	58.8	58.8	63.5	100.0	65.7	65.8	29.1	51.7
369.5	41.9	87.0	66.5	59.3	59.0	58.9	63.7	100.0	65.9	66.0	29.4	52.0
370.0	42.1	87.1	66.6	59.4	59.1	59.0	63.8	100.0	66.1	66.2	29.7	52.3
370.5	42.2	87.2	66.7	59.5	59.2	59.1	64.0	100.0	66.4	66.5	30.0	52.6
371.0	42.4	87.3	66.8	59.7	59.3	59.3	64.1	100.0	66.6	66.7	30.3	52.9
371.5	42.5	87.3	66.9	59.8	59.4	59.4	64.3	100.0	66.9	67.0	30.5	53.2
372.0	42.7	87.4	67.1	59.9	59.5	59.5	64.5	100.0	67.1	67.2	30.8	53.5
372.5	42.9	87.4	67.2	60.0	59.6	59.5	64.7	100.1	67.3	67.4	31.1	53.8
373.0	43.1	87.5	67.3	60.1	59.7	59.6	64.8	100.0	67.6	67.6	31.3	54.1
373.5	43.3	87.5	67.4	60.2	59.8	59.7	65.0	100.0	67.8	67.9	31.6	54.4
374.0	43.4	87.6	67.6	60.3	59.9	59.8	65.1	100.0	68.0	68.1	31.9	54.7
374.5	43.6	87.7	67.7	60.4	60.0	60.0	65.3	100.0	68.2	68.3	32.2	55.0
375.0	43.8	87.8	67.8	60.5	60.1	60.1	65.5	100.0	68.5	68.6	32.5	55.3
375.5	43.9	87.8	67.9	60.6	60.2	60.2	65.6	100.0	68.7	68.8	32.8	55.6
376.0	44.1	87.9	68.0	60.7	60.3	60.3	65.8	100.0	69.0	69.0	33.1	55.9
376.5	44.3	88.0	68.1	60.8	60.5	60.4	66.0	100.0	69.2	69.3	33.4	56.2
377.0	44.4	88.0	68.2	60.9	60.6	60.5	66.1	100.0	69.4	69.5	33.7	56.5
377.5	44.6	88.1	68.3	61.0	60.7	60.6	66.3	100.0	69.7	69.8	34.0	56.8
378.0	44.8	88.2	68.4	61.2	60.8	60.7	66.4	100.0	69.9	70.0	34.3	57.1
378.5	44.9	88.2	68.5	61.2	60.9	60.8	66.6	100.0	70.1	70.2	34.6	57.4
379.0	45.1	88.3	68.6	61.3	61.0	60.9	66.7	100.0	70.3	70.4	34.9	57.7
379.5	45.3	88.4	68.7	61.4	61.1	61.0	66.9	100.0	70.6	70.7	35.2	58.0
380.0	45.4	88.4	68.8	61.5	61.2	61.1	67.0	100.0	70.8	70.9	35.5	58.3
380.5	45.6	88.5	68.9	61.6	61.3	61.2	67.2	100.0	71.0	71.1	35.8	58.5
381.0	45.7	88.6	68.9	61.7	61.4	61.3	67.3	100.0	71.2	71.3	36.1	58.8
381.5	45.9	88.6	69.0	61.8	61.5	61.4	67.5	100.0	71.4	71.5	36.3	59.1
382.0	46.1	88.7	69.1	61.9	61.6	61.5	67.6	100.0	71.6	71.7	36.6	59.3
382.5	46.2	88.8	69.2	62.0	61.7	61.5	67.8	100.0	71.8	71.9	36.9	59.6
383.0	46.4	88.8	69.3	62.1	61.7	61.6	67.9	100.0	72.0	72.1	37.2	59.9
383.5	46.5	88.9	69.4	62.2	61.8	61.7	68.1	100.0	72.2	72.3	37.5	60.2
384.0	46.7	89.0	69.5	62.3	61.9	61.8	68.2	100.0	72.5	72.5	37.8	60.4
384.5	46.9	89.0	69.6	62.4	62.0	61.9	68.4	100.0	72.6	72.7	38.1	60.7
385.0	47.0	89.1	69.7	62.5	62.1	62.0	68.5	100.0	72.8	73.0	38.4	61.0
385.5	47.2	89.1	69.8	62.5	62.2	62.1	68.7	100.0	73.0	73.2	38.7	61.2
386.0	47.3	89.2	69.9	62.6	62.3	62.2	68.8	100.0	73.2	73.4	39.0	61.5
386.5	47.5	89.2	69.9	62.7	62.4	62.3	69.0	100.0	73.4	73.5	39.2	61.7
387.0	47.6	89.3	70.0	62.8	62.5	62.3	69.1	100.0	73.6	73.7	39.5	62.0
387.5	47.8	89.4	70.1	62.9	62.5	62.4	69.2	100.0	73.8	73.9	39.8	62.2
388.0	47.9	89.4	70.2	63.0	62.6	62.5	69.4	100.0	74.0	74.1	40.1	62.4
388.5	48.0	89.4	70.2	63.1	62.7	62.6	69.5	100.0	74.2	74.3	40.3	62.7
389.0	48.2	89.5	70.3	63.1	62.8	62.6	69.6	100.0	74.3	74.4	40.6	62.9
389.5	48.3	89.6	70.4	63.2	62.9	62.7	69.8	100.0	74.5	74.6	40.8	63.1
390.0	48.5	89.6	70.5	63.3	62.9	62.8	69.9	100.0	74.7	74.8	41.1	63.4
390.5	48.6	89.7	70.5	63.3	63.0	62.9	70.0	100.0	74.9	74.9	41.3	63.6
391.0	48.7	89.7	70.6	63.4	63.1	62.9	70.1	100.0	75.0	75.1	41.6	63.8
391.5	48.9	89.7	70.7	63.5	63.1	63.0	70.3	100.0	75.2	75.3	41.8	64.0
392.0	49.0	89.8	70.7	63.6	63.2	63.1	70.4	100.0	75.4	75.4	42.1	64.2
392.5	49.2	89.9	70.8	63.6	63.3	63.1	70.5	100.0	75.5	75.6	42.3	64.4
393.0	49.3	89.9	70.9	63.7	63.4	63.2	70.7	100.0	75.7	75.8	42.6	64.6
393.5	49.4	90.0	71.0	63.8	63.4	63.3	70.8	100.0	75.8	75.9	42.8	64.8
394.0	49.6	90.0	71.0	63.8	63.5	63.4	70.9	100.0	76.0	76.1	43.1	65.0
394.5	49.7	90.1	71.1	63.9	63.6	63.4	71.0	100.0	76.2	76.3	43.3	65.2
395.0	49.8	90.1	71.2	64.0	63.7	63.5	71.1	100.0	76.3	76.4	43.6	65.4
395.5	49.9	90.1	71.2	64.1	63.7	63.6	71.3	100.0	76.5	76.6	43.8	65.6
396.0	50.1	90.2	71.3	64.1	63.8	63.6	71.4	100.0	76.6	76.7	44.1	65.8
396.5	50.2	90.2	71.4	64.2	63.8	63.7	71.5	100.0	76.8	76.9	44.3	66.0
397.0	50.3	90.3	71.5	64.2	63.9	63.8	71.6	100.0	76.9	77.0	44.5	66.2
397.5	50.5	90.3	71.5	64.3	64.0	63.8	71.7	100.0	77.0	77.1	44.7	66.4
398.0	50.6	90.4	71.6	64.4	64.0	63.9	71.9	100.0	77.2	77.3	45.0	66.6
398.5	50.7	90.4	71.6	64.4	64.1	64.0	72.0	100.0	77.3	77.4	45.2	66.8
399.0	50.8	90.5	71.7	64.5	64.2	64.0	72.1	100.0	77.5	77.6	45.4	66.9
399.5	50.9	90.5	71.7	64.6	64.2	64.1	72.2	100.0	77.6	77.7	45.6	67.1
400.0	51.0	90.5	71.8	64.6	64.3	64.1	72.3	100.0	77.7	77.8	45.8	67.3
400.5	51.2	90.6	71.9	64.7	64.3	64.2	72.4	100.0	77.9	78.0	46.1	67.5
401.0	51.3	90.6	71.9	64.7	64.4	64.2	72.5	100.0	78.0	78.1	46.3	67.6
401.5	51.4	90.7	72.0	64.8	64.5	64.3	72.6	100.0	78.1	78.2	46.5	67.8
402.0	51.5	90.7	72.0	64.8	64.5	64.4	72.7	100.0	78.3	78.4	46.7	68.0
402.5	51.7	90.8	72.1	64.9	64.6	64.4	72.9	100.0	78.4	78.5	46.9	68.2
403.0	51.8	90.8	72.2	65.0	64.6	64.5	73.0	100.0	78.5	78.6	47.1	68.3
403.5	51.9	90.8	72.2	65.0	64.7	64.5	73.1	100.0	78.6	78.7	47.3	68.5
404.0	52.0	90.9	72.3	65.1	64.7	64.6	73.2	100.0	78.8	78.9	47.5	68.6
404.5	52.1	90.9	72.3	65.1	64.8	64.6	73.3	100.0	78.9	79.0	47.7	68.8
405.0	52.2	90.9	72.4	65.2	64.9	64.7	73.4	100.0	79.0	79.1	47.9	68.9
405.5	52.4	91.0	72.4	65.2	64.9	64.8	73.5	100.0	79.1	79.2	48.1	69.1
406.0	52.5	91.0	72.5	65.3	65.0	64.8	73.6	100.0	79.2	79.3	48.3	69.2
406.5	52.6	91.0	72.5	65.3	65.0	64.9	73.7	100.0	79.3	79.4	48.5	69.4
407.0	52.7	91.1	72.6	65.4	65.1	64.9	73.8	100.0	79.5	79.6	48.7	69.5
407.5	52.8	91.1	72.7	65.4	65.1	65.0	73.9	100.0	79.6	79.7	48.9	69.7
408.0	52.9	91.2	72.7	65.5	65.2	65.0	74.0	100.0	79.7	79.8	49.1	69.8
408.5	53.0	91.2	72.7	65.6	65.2	65.1	74.1	100.0	79.8	79.9	49.3	70.0
409.0	53.1	91.2	72.8	65.6	65.3	65.1	74.1	100.0	79.9	80.0	49.5	70.1
409.5	53.2	91.3	72.8	65.7	65.3	65.2	74.2	100.0	80.0	80.1	49.6	70.3
410.0	53.3	91.3	72.9	65.7	65.4	65.2	74.3	100.0	80.1	80.2	49.8	70.4
410.5	53.4	91.3	72.9	65.7	65.4	65.3	74.4	100.0	80.2	80.3	50.0	70.5
411.0	53.5	91.4	73.0	65.8	65.5	65.3	74.5	100.0	80.3	80.4	50.1	70.7
411.5	53.6	91.4	73.0	65.8	65.5	65.4	74.6	100.0	80.4	80.5	50.3	70.8
412.0	53.7	91.4	73.1	65.9	65.6	65.4	74.7	100.0	80.5	80.6	50.5	70.9
412.5	53.8	91.5	73.1	65.9	65.6	65.5	74.8	100.0	80.6	80.7	50.7	71.0
413.0	53.9	91.5	73.2	66.0	65.7	65.5	74.9	100.0	80.7	80.8	50.8	71.2
413.5	54.0	91.5	73.2	66.0	65.7	65.6	74.9	100.0	80.8	80.9	51.0	71.3
414.0	54.1	91.5	73.3	66.1	65.8	65.6	75.0	100.1	80.9	81.0	51.2	71.4
414.5	54.2	91.6	73.3	66.1	65.8	65.7	75.1	100.0	81.0	81.1	51.3	71.6
415.0	54.3	91.6	73.4	66.2	65.9	65.7	75.2	100.0	81.1	81.2	51.5	71.7
415.5	54.4	91.6	73.4	66.2	65.9	65.7	75.3	100.0	81.2	81.3	51.7	71.8
416.0	54.5	91.6	73.5	66.2	65.9	65.8	75.4	100.0	81.3	81.4	51.8	71.9
416.5	54.6	91.7	73.5	66.3	66.0	65.8	75.5	100.0	81.4	81.5	52.0	72.1
417.0	54.7	91.7	73.6	66.3	66.0	65.9	75.5	100.0	81.5	81.6	52.1	72.2
417.5	54.8	91.7	73.6	66.4	66.1	65.9	75.6	100.0	81.6	81.6	52.3	72.3
418.0	54.9	91.8	73.7	66.4	66.1	66.0	75.7	100.0	81.6	81.7	52.4	72.4
418.5	55.0	91.8	73.7	66.5	66.2	66.0	75.8	100.0	81.7	81.8	52.6	72.5
419.0	55.1	91.8	73.8	66.5	66.2	66.0	75.9	100.0	81.8	81.9	52.8	72.7
419.5	55.2	91.8	73.8	66.5	66.3	66.1	75.9	100.0	81.9	82.0	52.9	72.8
420.0	55.3	91.9	73.8	66.6	66.3	66.1	76.0	100.0	82.0	82.1	53.1	72.9
420.5	55.3	91.9	73.9	66.6	66.3	66.2	76.1	100.0	82.1	82.2	53.2	73.0
421.0	55.4	91.9	73.9	66.7	66.4	66.2	76.2	100.0	82.2	82.2	53.4	73.1
421.5	55.5	92.0	74.0	66.7	66.4	66.3	76.2	100.0	82.3	82.3	53.5	73.2
422.0	55.6	92.0	74.0	66.8	66.5	66.3	76.3	100.0	82.3	82.4	53.7	73.3
422.5	55.7	92.0	74.0	66.8	66.5	66.3	76.4	100.0	82.4	82.5	53.8	73.5
423.0	55.8	92.1	74.1	66.9	66.6	66.4	76.5	100.0	82.5	82.6	54.0	73.6
423.5	55.9	92.1	74.1	66.9	66.6	66.4	76.5	100.0	82.6	82.7	54.1	73.7
424.0	56.0	92.1	74.2	67.0	66.7	66.5	76.6	100.0	82.7	82.7	54.3	73.8
424.5	56.1	92.1	74.2	67.0	66.7	66.5	76.7	100.0	82.7	82.8	54.4	73.9
425.0	56.2	92.2	74.3	67.0	66.8	66.6	76.8	100.0	82.8	82.9	54.6	74.0
425.5	56.3	92.2	74.3	67.1	66.8	66.6	76.8	100.0	82.9	83.0	54.7	74.1
426.0	56.3	92.2	74.4	67.1	66.8	66.7	76.9	100.0	83.0	83.1	54.9	74.2
426.5	56.4	92.2	74.4	67.2	66.9	66.7	77.0	100.0	83.1	83.1	55.0	74.3
427.0	56.5	92.3	74.4	67.2	66.9	66.7	77.0	100.0	83.1	83.2	55.1	74.4
427.5	56.6	92.3	74.5	67.2	67.0	66.8	77.1	100.0	83.2	83.3	55.3	74.5
428.0	56.7	92.3	74.5	67.3	67.0	66.8	77.2	100.0	83.3	83.4	55.4	74.6
428.5	56.8	92.3	74.6	67.3	67.0	66.9	77.2	100.0	83.3	83.4	55.5	74.7
429.0	56.9	92.4	74.6	67.4	67.1	66.9	77.3	100.0	83.4	83.5	55.7	74.8
429.5	56.9	92.4	74.6	67.4	67.1	67.0	77.4	100.0	83.5	83.6	55.8	74.9
430.0	57.0	92.4	74.7	67.5	67.2	67.0	77.4	100.0	83.6	83.7	56.0	75.0
430.5	57.1	92.5	74.7	67.5	67.2	67.0	77.5	100.0	83.6	83.7	56.1	75.1
431.0	57.2	92.5	74.7	67.5	67.2	67.1	77.5	100.0	83.7	83.8	56.2	75.2
431.5	57.3	92.5	74.8	67.6	67.3	67.1	77.6	100.0	83.8	83.9	56.4	75.3
432.0	57.4	92.5	74.8	67.6	67.3	67.2	77.7	100.0	83.9	83.9	56.5	75.4
432.5	57.4	92.5	74.9	67.7	67.4	67.2	77.7	100.0	83.9	84.0	56.6	75.5
433.0	57.5	92.6	74.9	67.7	67.4	67.2	77.8	100.0	84.0	84.1	56.8	75.6
433.5	57.6	92.6	75.0	67.7	67.5	67.3	77.9	100.0	84.1	84.1	56.9	75.7
434.0	57.7	92.6	75.0	67.8	67.5	67.3	77.9	100.0	84.1	84.2	57.0	75.8
434.5	57.8	92.7	75.0	67.8	67.5	67.4	78.0	100.0	84.2	84.3	57.1	75.9
435.0	57.9	92.7	75.0	67.9	67.6	67.4	78.0	100.0	84.3	84.3	57.3	76.0
435.5	57.9	92.7	75.1	67.9	67.6	67.4	78.1	100.0	84.3	84.4	57.4	76.1
436.0	58.0	92.7	75.1	67.9	67.7	67.5	78.2	100.0	84.4	84.5	57.5	76.2
436.5	58.1	92.7	75.2	68.0	67.7	67.5	78.2	100.0	84.4	84.5	57.6	76.3
437.0	58.2	92.8	75.2	68.0	67.7	67.5	78.3	100.0	84.5	84.6	57.8	76.4
437.5	58.2	92.8	75.2	68.0	67.7	67.6	78.3	100.0	84.6	84.6	57.9	76.5
438.0	58.3	92.8	75.3	68.1	67.8	67.6	78.4	100.0	84.6	84.7	58.0	76.5
438.5	58.4	92.8	75.3	68.1	67.8	67.7	78.4	100.0	84.7	84.8	58.1	76.6
439.0	58.5	92.9	75.3	68.2	67.9	67.7	78.5	100.0	84.8	84.8	58.2	76.7
439.5	58.5	92.9	75.4	68.2	67.9	67.7	78.6	100.0	84.8	84.9	58.4	76.8
440.0	58.6	92.9	75.4	68.2	68.0	67.8	78.6	100.0	84.9	85.0	58.5	76.9
440.5	58.7	92.9	75.4	68.3	68.0	67.8	78.7	100.0	84.9	85.0	58.6	77.0
441.0	58.8	92.9	75.5	68.3	68.0	67.9	78.7	100.0	85.0	85.1	58.7	77.1
441.5	58.8	93.0	75.5	68.3	68.1	67.9	78.8	100.0	85.1	85.1	58.8	77.2
442.0	58.9	93.0	75.5	68.4	68.1	67.9	78.8	100.0	85.1	85.2	58.9	77.2
442.5	59.0	93.0	75.6	68.4	68.1	68.0	78.9	100.0	85.2	85.2	59.0	77.3
443.0	59.1	93.0	75.6	68.5	68.2	68.0	78.9	100.0	85.2	85.3	59.2	77.4
443.5	59.1	93.1	75.6	68.5	68.2	68.1	79.0	100.0	85.3	85.4	59.3	77.5
444.0	59.2	93.1	75.7	68.5	68.2	68.1	79.0	100.0	85.3	85.4	59.4	77.6
444.5	59.3	93.1	75.7	68.6	68.3	68.1	79.1	100.0	85.4	85.5	59.5	77.7
445.0	59.4	93.1	75.7	68.6	68.3	68.2	79.1	100.0	85.5	85.5	59.6	77.7
445.5	59.4	93.1	75.8	68.6	68.4	68.2	79.2	100.0	85.5	85.6	59.7	77.8
446.0	59.5	93.1	75.8	68.7	68.4	68.2	79.2	100.0	85.6	85.7	59.8	77.9
446.5	59.6	93.2	75.8	68.7	68.4	68.3	79.3	100.0	85.6	85.7	60.0	78.0
447.0	59.6	93.2	75.9	68.7	68.5	68.3	79.3	100.0	85.7	85.8	60.1	78.1
447.5	59.7	93.2	75.9	68.8	68.5	68.3	79.4	100.0	85.7	85.8	60.2	78.1
448.0	59.8	93.2	75.9	68.8	68.5	68.4	79.4	100.0	85.8	85.9	60.3	78.2
448.5	59.9	93.3	76.0	68.8	68.6	68.4	79.5	100.0	85.9	85.9	60.4	78.3
449.0	59.9	93.3	76.0	68.9	68.6	68.5	79.5	100.0	85.9	86.0	60.5	78.4
449.5	60.0	93.3	76.0	68.9	68.6	68.5	79.6	100.0	86.0	86.0	60.6	78.5
450.0	60.1	93.3	76.1	69.0	68.7	68.5	79.6	100.0	86.0	86.1	60.7	78.5
450.5	60.1	93.3	76.1	69.0	68.7	68.5	79.7	100.0	86.1	86.1	60.8	78.6
451.0	60.2	93.4	76.1	69.0	68.7	68.6	79.7	100.0	86.1	86.2	60.9	78.7
451.5	60.3	93.4	76.2	69.1	68.8	68.6	79.7	100.0	86.2	86.2	61.0	78.8
452.0	60.4	93.4	76.2	69.1	68.8	68.7	79.8	100.0	86.2	86.3	61.1	78.8
452.5	60.5	93.4	76.2	69.1	68.8	68.7	79.8	100.0	86.3	86.4	61.3	78.9
453.0	60.5	93.4	76.3	69.2	68.9	68.7	79.9	100.0	86.3	86.4	61.3	79.0
453.5	60.6	93.5	76.3	69.2	68.9	68.8	80.0	100.0	86.4	86.5	61.4	79.0
454.0	60.6	93.5	76.3	69.2	68.9	68.8	80.0	100.0	86.4	86.5	61.5	79.1
454.5	60.7	93.5	76.4	69.3	69.0	68.8	80.0	100.0	86.5	86.5	61.6	79.2
455.0	60.8	93.5	76.4	69.3	69.0	68.9	80.1	100.0	86.5	86.6	61.7	79.3
455.5	60.9	93.5	76.4	69.3	69.0	68.9	80.1	100.0	86.6	86.6	61.9	79.3
456.0	60.9	93.6	76.5	69.4	69.1	68.9	80.2	100.0	86.6	86.7	62.0	79.4
456.5	61.0	93.6	76.5	69.4	69.1	69.0	80.2	100.0	86.7	86.7	62.0	79.5
457.0	61.1	93.6	76.5	69.4	69.2	69.0	80.3	100.0	86.7	86.8	62.1	79.5
457.5	61.1	93.6	76.5	69.5	69.2	69.0	80.3	100.0	86.7	86.8	62.2	79.6
458.0	61.2	93.6	76.6	69.5	69.2	69.1	80.3	100.0	86.8	86.9	62.3	79.7
458.5	61.3	93.7	76.6	69.5	69.2	69.1	80.4	100.0	86.8	86.9	62.4	79.7
459.0	61.3	93.7	76.6	69.5	69.3	69.1	80.4	100.0	86.9	87.0	62.5	79.8
459.5	61.4	93.7	76.6	69.6	69.3	69.2	80.5	100.0	86.9	87.0	62.6	79.9
460.0	61.4	93.7	76.7	69.6	69.3	69.2	80.5	100.0	87.0	87.1	62.7	79.9
460.5	61.5	93.7	76.7	69.6	69.4	69.2	80.5	100.0	87.0	87.1	62.8	80.0
461.0	61.6	93.7	76.7	69.7	69.4	69.3	80.6	100.0	87.1	87.2	62.9	80.1
461.5	61.6	93.8	76.8	69.7	69.4	69.3	80.6	100.0	87.1	87.2	62.9	80.1
462.0	61.7	93.8	76.8	69.7	69.5	69.3	80.7	100.0	87.1	87.2	63.0	80.2
462.5	61.8	93.8	76.8	69.8	69.5	69.3	80.7	100.0	87.2	87.3	63.1	80.3
463.0	61.8	93.8	76.8	69.8	69.5	69.4	80.8	100.0	87.3	87.3	63.2	80.3
463.5	61.9	93.8	76.9	69.8	69.5	69.4	80.8	100.0	87.3	87.4	63.3	80.4
464.0	61.9	93.8	76.9	69.8	69.6	69.4	80.8	100.0	87.3	87.4	63.4	80.4
464.5	62.0	93.9	76.9	69.9	69.6	69.5	80.9	100.0	87.4	87.4	63.5	80.5
465.0	62.1	93.9	77.0	69.9	69.6	69.5	80.9	100.0	87.4	87.5	63.6	80.6
465.5	62.1	93.9	77.0	69.9	69.7	69.5	80.9	100.0	87.5	87.5	63.6	80.6
466.0	62.2	93.9	77.0	70.0	69.7	69.5	81.0	100.0	87.5	87.6	63.7	80.7
466.5	62.2	93.9	77.0	70.0	69.7	69.6	81.0	100.0	87.5	87.6	63.8	80.7
467.0	62.3	93.9	77.1	70.0	69.8	69.6	81.1	100.0	87.6	87.7	63.9	80.8
467.5	62.4	94.0	77.1	70.0	69.8	69.6	81.1	100.0	87.6	87.7	64.0	80.9
468.0	62.4	94.0	77.1	70.1	69.8	69.7	81.2	100.0	87.7	87.7	64.1	80.9
468.5	62.5	94.0	77.2	70.1	69.8	69.7	81.2	100.0	87.7	87.8	64.2	81.0
469.0	62.6	94.0	77.2	70.1	69.9	69.7	81.2	100.0	87.7	87.8	64.2	81.1
469.5	62.6	94.0	77.2	70.2	69.9	69.7	81.3	100.0	87.8	87.9	64.3	81.1
470.0	62.7	94.0	77.2	70.2	69.9	69.8	81.3	100.0	87.8	87.9	64.4	81.2
470.5	62.7	94.0	77.3	70.2	69.9	69.8	81.3	100.0	87.8	87.9	64.5	81.2
471.0	62.8	94.1	77.3	70.2	70.0	69.8	81.4	100.0	87.9	88.0	64.6	81.3
471.5	62.9	94.1	77.3	70.3	70.0	69.9	81.4	100.0	87.9	88.0	64.7	81.3
472.0	62.9	94.1	77.3	70.3	70.0	69.9	81.5	100.0	88.0	88.1	64.7	81.4
472.5	63.0	94.1	77.4	70.3	70.1	69.9	81.5	100.0	88.0	88.1	64.8	81.5
473.0	63.0	94.1	77.4	70.4	70.1	70.0	81.5	100.0	88.0	88.1	64.9	81.5
473.5	63.1	94.1	77.4	70.4	70.1	70.0	81.6	100.0	88.1	88.2	65.0	81.6
474.0	63.2	94.2	77.4	70.4	70.2	70.0	81.6	100.0	88.1	88.2	65.1	81.6
474.5	63.2	94.2	77.5	70.4	70.2	70.0	81.6	100.0	88.2	88.3	65.1	81.7
475.0	63.3	94.2	77.5	70.5	70.2	70.1	81.7	100.0	88.2	88.3	65.2	81.7
475.5	63.3	94.2	77.5	70.5	70.2	70.1	81.7	100.0	88.2	88.3	65.3	81.8
476.0	63.4	94.2	77.5	70.5	70.3	70.1	81.8	100.0	88.3	88.4	65.4	81.8
476.5	63.5	94.2	77.6	70.6	70.3	70.2	81.8	100.0	88.3	88.4	65.5	81.9
477.0	63.5	94.3	77.6	70.6	70.3	70.2	81.8	100.0	88.4	88.4	65.5	82.0
477.5	63.6	94.3	77.6	70.6	70.4	70.2	81.9	100.0	88.4	88.5	65.6	82.0
478.0	63.6	94.3	77.6	70.7	70.4	70.2	81.9	100.0	88.4	88.5	65.7	82.1
478.5	63.7	94.3	77.7	70.7	70.4	70.3	81.9	100.0	88.5	88.5	65.7	82.1
479.0	63.7	94.3	77.7	70.7	70.4	70.3	81.9	100.0	88.5	88.6	65.8	82.2
479.5	63.8	94.3	77.7	70.7	70.5	70.3	82.0	100.0	88.5	88.6	65.9	82.2
480.0	63.9	94.4	77.7	70.8	70.5	70.4	82.0	100.0	88.6	88.6	66.0	82.3
480.5	63.9	94.4	77.7	70.8	70.5	70.4	82.1	100.0	88.6	88.7	66.0	82.3
481.0	64.0	94.4	77.8	70.8	70.5	70.4	82.1	100.0	88.6	88.7	66.1	82.4
481.5	64.0	94.4	77.8	70.8	70.6	70.4	82.1	100.0	88.7	88.8	66.2	82.4
482.0	64.1	94.4	77.8	70.9	70.6	70.5	82.2	100.0	88.7	88.8	66.3	82.5
482.5	64.1	94.4	77.8	70.9	70.6	70.5	82.2	100.0	88.7	88.8	66.3	82.5
483.0	64.2	94.4	77.9	70.9	70.7	70.5	82.2	100.0	88.8	88.8	66.4	82.6
483.5	64.2	94.5	77.9	70.9	70.7	70.5	82.2	100.0	88.8	88.9	66.5	82.6
484.0	64.3	94.5	77.9	71.0	70.7	70.6	82.3	100.0	88.8	88.9	66.5	82.7
484.5	64.3	94.5	77.9	71.0	70.7	70.6	82.3	100.0	88.9	88.9	66.6	82.7
485.0	64.4	94.5	77.9	71.0	70.8	70.6	82.3	100.0	88.9	89.0	66.7	82.7
485.5	64.4	94.5	78.0	71.0	70.8	70.6	82.4	100.0	88.9	89.0	66.7	82.8
486.0	64.5	94.5	78.0	71.1	70.8	70.7	82.4	100.0	89.0	89.0	66.8	82.8
486.5	64.5	94.5	78.0	71.1	70.8	70.7	82.4	100.0	89.0	89.1	66.9	82.9
487.0	64.6	94.6	78.0	71.1	70.9	70.7	82.5	100.0	89.0	89.1	66.9	82.9
487.5	64.6	94.6	78.0	71.1	70.9	70.7	82.5	100.0	89.1	89.1	67.0	83.0
488.0	64.7	94.6	78.1	71.2	70.9	70.8	82.5	100.0	89.1	89.2	67.1	83.0
488.5	64.8	94.6	78.1	71.2	70.9	70.8	82.6	100.0	89.1	89.2	67.1	83.1
489.0	64.8	94.6	78.1	71.2	71.0	70.8	82.6	100.0	89.2	89.2	67.2	83.1
489.5	64.9	94.6	78.1	71.2	71.0	70.8	82.6	100.0	89.2	89.3	67.3	83.2
490.0	64.9	94.6	78.2	71.3	71.0	70.9	82.6	100.0	89.2	89.3	67.3	83.2
490.5	65.0	94.6	78.2	71.3	71.0	70.9	82.7	100.0	89.3	89.3	67.4	83.3
491.0	65.0	94.7	78.2	71.3	71.1	70.9	82.7	100.0	89.3	89.4	67.5	83.3
491.5	65.1	94.7	78.2	71.3	71.1	70.9	82.7	100.0	89.3	89.4	67.5	83.4
492.0	65.1	94.7	78.2	71.4	71.1	71.0	82.8	100.0	89.3	89.4	67.6	83.4
492.5	65.2	94.7	78.3	71.4	71.1	71.0	82.8	100.0	89.4	89.5	67.7	83.5
493.0	65.2	94.7	78.3	71.4	71.2	71.0	82.8	100.0	89.4	89.5	67.7	83.5
493.5	65.3	94.7	78.3	71.4	71.2	71.1	82.9	100.0	89.5	89.5	67.8	83.6
494.0	65.3	94.7	78.3	71.5	71.2	71.1	82.9	100.0	89.5	89.6	67.9	83.6
494.5	65.4	94.8	78.3	71.5	71.2	71.1	82.9	100.0	89.5	89.6	67.9	83.6
495.0	65.4	94.8	78.4	71.5	71.3	71.1	83.0	100.0	89.5	89.6	68.0	83.7
495.5	65.5	94.8	78.4	71.5	71.3	71.2	83.0	100.0	89.6	89.7	68.1	83.7
496.0	65.5	94.8	78.4	71.6	71.3	71.2	83.0	100.0	89.6	89.7	68.1	83.8
496.5	65.6	94.8	78.4	71.6	71.3	71.2	83.0	100.0	89.6	89.7	68.2	83.8
497.0	65.6	94.8	78.4	71.6	71.4	71.2	83.1	100.0	89.7	89.7	68.3	83.9
497.5	65.7	94.8	78.5	71.6	71.4	71.3	83.1	100.0	89.7	89.8	68.3	83.9
498.0	65.7	94.8	78.5	71.7	71.4	71.3	83.1	100.0	89.7	89.8	68.4	84.0
498.5	65.8	94.9	78.5	71.7	71.4	71.3	83.2	100.0	89.8	89.8	68.4	84.0
499.0	65.8	94.9	78.5	71.7	71.5	71.3	83.2	100.0	89.8	89.9	68.5	84.0
499.5	65.9	94.9	78.5	71.7	71.5	71.3	83.2	100.0	89.8	89.9	68.6	84.1
500.0	65.9	94.9	78.5	71.7	71.5	71.4	83.2	100.0	89.8	89.9	68.6	84.1
